x,y,z,isOnCurveMod,angle,isMdlVtx
0.0,0.0, 0, 0, 0, 1
0.5,0.156, 0, 0, 0, 0
1.0,0.309, 0, 0, 0, 0
1.5,0.454, 0, 0, 0, 0
2.0,0.588, 0, 0, 0, 0
2.5,0.707, 0, 0, 0, 0
3.0,0.809, 0, 0, 0, 0
3.5,0.891, 0, 0, 0, 0
4.0,0.951, 0, 0, 0, 0
4.5,0.987, 0, 0, 0, 0
5.0,1.0, 0, 0, 0, 0
5.5,0.987, 0, 0, 0, 0
6.0,0.951, 0, 0, 0, 0
6.5,0.891, 0, 0, 0, 0
7.0,0.809, 0, 0, 0, 0
7.5,0.707, 0, 0, 0, 0
8.0,0.588, 0, 0, 0, 0
8.5,0.454, 0, 0, 0, 0
9.0,0.309, 0, 0, 0, 0
9.5,0.156, 0, 0, 0, 0
10.0,0.0, 0, 0, 0, 1